0.6  10915.897
0.60296118  10925.99
0.60592237  10934.171
0.60888355  10943.271
0.61184474  10955.196
0.61480592  10969.103
0.61776711  10981.609
0.62072829  10992.484
0.62368948  11002.971
0.62665066  11021.678
0.62961184  11034.714
0.63257303  11042.75
0.63553421  11046.249
0.6384954  11051.446
0.64145658  11059.446
0.64441777  11067.744
0.64737895  11065.282
0.65034014  11067.747
0.65330132  11065.218
0.65626251  11065.703
0.65922369  11058.027
0.66218487  11046.839
0.66514606  11039.306
0.66810724  11037.524
0.67106843  11037.267
0.67402961  11032.606
0.6769908  11021.108
0.67995198  11006.661
0.68291317  10997.609
0.68587435  10988.71
0.68883553  10979.015
0.69179672  10968.744
0.6947579  10962.949
0.69771909  10960.147
0.70068027  10954.839
0.70364146  10944.372
0.70660264  10938.481
0.70956383  10932.283
0.71252501  10928.131
0.71548619  10919.356
0.71844738  10914.988
0.72140856  10917.074
0.72436975  10920.572
0.72733093  10922.898
0.73029212  10926.822
0.7332533  10927.366
0.73621449  10925.509
0.73917567  10916.839
0.74213685  10906.768
0.74509804  10894.879
0.74805922  10879.426
0.75102041  10865.297
0.75398159  10852.545
0.75694278  10836.392
0.75990396  10818.46
0.76286515  10802.845
0.76582633  10793.15
0.76878752  10785.323
0.7717487  10774.239
0.77470988  10763.126
0.77767107  10756.852
0.78063225  10748.201
0.78359344  10740.08
0.78655462  10723.6
0.78951581  10704.139
0.79247699  10690.044
0.79543818  10670.923
0.79839936  10649.223
0.80136054  10625.993
0.80432173  10610.278
0.80728291  10594.505
0.8102441  10580.464
0.81320528  10567.451
0.81616647  10555.003
0.81912765  10537.784
0.82208884  10523.571
0.82505002  10508.744
0.8280112  10490.77
0.83097239  10471.754
0.83393357  10459.946
0.83689476  10447.08
0.83985594  10432.753
0.84281713  10416.794
0.84577831  10403.647
0.8487395  10394.836
0.85170068  10385.206
0.85466186  10368.61
0.85762305  10348.459
0.86058423  10327.379
0.86354542  10313.232
0.8665066  10295.103
0.86946779  10275.188
0.87242897  10257.237
0.87539016  10241.016
0.87835134  10229.442
0.88131253  10214.042
0.88427371  10198.592
0.88723489  10184.187
0.89019608  10164.431
0.89315726  10143.908
0.89611845  10121.137
0.89907963  10098.809
0.90204082  10077.042
0.905002  10055.507
0.90796319  10038.012
0.91092437  10020.082
0.91388555  10001.047
0.91684674  9979.5944
0.91980792  9957.8904
0.92276911  9940.0582
0.92573029  9922.7792
0.92869148  9904.7742
0.93165266  9881.367
0.93461385  9859.3541
0.93757503  9843.3323
0.94053621  9828.6536
0.9434974  9817.4284
0.94645858  9802.1358
0.94941977  9788.8263
0.95238095  9775.9143
0.95534214  9764.5924
0.95830332  9752.1788
0.96126451  9741.855
0.96422569  9732.1952
0.96718687  9718.4136
0.97014806  9699.5861
0.97310924  9686.4515
0.97607043  9671.4585
0.97903161  9654.1409
0.9819928  9637.5072
0.98495398  9620.8156
0.98791517  9605.7322
0.99087635  9589.8643
0.99383754  9572.641
0.99679872  9553.8136
0.9997599  9535.3526
1.0027211  9521.3585
1.0056823  9504.9141
1.0086435  9486.4545
1.0116046  9468.1885
1.0145658  9448.8058
1.017527  9427.884
1.0204882  9401.9524
1.0234494  9374.6389
1.0264106  9347.4899
1.0293717  9324.7456
1.0323329  9303.1874
1.0352941  9280.4785
1.0382553  9261.6647
1.0412165  9245.8618
1.0441777  9231.9727
1.0471389  9221.9558
1.0501  9212.8531
1.0530612  9203.1237
1.0560224  9190.4528
1.0589836  9180.2917
1.0619448  9166.2
1.064906  9149.4201
1.0678671  9133.6842
1.0708283  9120.7784
1.0737895  9109.7023
1.0767507  9098.4831
1.0797119  9088.0592
1.0826731  9078.2638
1.0856343  9066.0798
1.0885954  9051.0926
1.0915566  9037.4456
1.0945178  9026.5942
1.097479  9017.279
1.1004402  9004.6675
1.1034014  8992.8313
1.1063625  8982.3439
1.1093237  8971.177
1.1122849  8958.8356
1.1152461  8944.0633
1.1182073  8927.4008
1.1211685  8908.6351
1.1241297  8887.7661
1.1270908  8870.1267
1.130052  8852.9532
1.1330132  8837.7639
1.1359744  8817.8626
1.1389356  8794.7386
1.1418968  8768.7798
1.1448579  8747.2235
1.1478191  8727.6589
1.1507803  8710.649
1.1537415  8692.7679
1.1567027  8678.3758
1.1596639  8663.5634
1.1626251  8648.4127
1.1655862  8633.0325
1.1685474  8621.2333
1.1715086  8609.7805
1.1744698  8597.8967
1.177431  8586.3515
1.1803922  8574.0835
1.1833533  8559.4867
1.1863145  8544.9996
1.1892757  8531.0297
1.1922369  8518.0447
1.1951981  8510.8995
1.1981593  8507.1571
1.2011204  8501.3675
1.2040816  8491.5407
1.2070428  8486.3537
1.210004  8480.9215
1.2129652  8473.1297
1.2159264  8466.2475
1.2188876  8458.755
1.2218487  8451.293
1.2248099  8441.8502
1.2277711  8430.1394
1.2307323  8418.1391
1.2336935  8406.7194
1.2366547  8400.568
1.2396158  8393.4478
1.242577  8380.1884
1.2455382  8363.6302
1.2484994  8347.5744
1.2514606  8330.756
1.2544218  8314.1951
1.257383  8298.9093
1.2603441  8284.5228
1.2633053  8270.8258
1.2662665  8256.9251
1.2692277  8239.966
1.2721889  8223.058
1.2751501  8209.0729
1.2781112  8197.2833
1.2810724  8187.3162
1.2840336  8180.7277
1.2869948  8173.5402
1.289956  8160.2227
1.2929172  8148.9713
1.2958784  8138.349
1.2988395  8129.7287
1.3018007  8121.5661
1.3047619  8117.4135
1.3077231  8115.2305
1.3106843  8112.5392
1.3136455  8106.8838
1.3166066  8100.1535
1.3195678  8093.7432
1.322529  8089.3256
1.3254902  8088.9191
1.3284514  8089.147
1.3314126  8086.0246
1.3343737  8080.4484
1.3373349  8076.8007
1.3402961  8076.3256
1.3432573  8073.804
1.3462185  8066.4895
1.3491797  8054.59
1.3521409  8040.8788
1.355102  8027.1803
1.3580632  8016.2494
1.3610244  8003.4767
1.3639856  7994.3091
1.3669468  7985.3273
1.369908  7976.9085
1.3728691  7966.476
1.3758303  7956.0593
1.3787915  7946.5781
1.3817527  7941.0833
1.3847139  7933.514
1.3876751  7923.1537
1.3906363  7913.4428
1.3935974  7907.2242
1.3965586  7899.5934
1.3995198  7887.1424
1.402481  7872.8132
1.4054422  7865.5371
1.4084034  7858.3659
1.4113645  7850.596
1.4143257  7843.4908
1.4172869  7838.9902
1.4202481  7838.7243
1.4232093  7836.2339
1.4261705  7834.1805
1.4291317  7831.8236
1.4320928  7830.5562
1.435054  7827.9922
1.4380152  7824.9518
1.4409764  7822.4348
1.4439376  7818.1684
1.4468988  7813.3621
1.4498599  7807.616
1.4528211  7798.3599
1.4557823  7788.7386
1.4587435  7779.3335
1.4617047  7775.2431
1.4646659  7766.2345
1.4676271  7759.2222
1.4705882  7752.0435
1.4735494  7745.1605
1.4765106  7740.1143
1.4794718  7734.279
1.482433  7725.9905
1.4853942  7719.8412
1.4883553  7711.6143
1.4913165  7710.7036
1.4942777  7705.6754
1.4972389  7699.68
1.5002001  7694.2187
1.5031613  7688.9814
1.5061224  7681.4449
1.5090836  7672.9151
1.5120448  7664.5577
1.515006  7659.5187
1.5179672  7654.3174
1.5209284  7650.0638
1.5238896  7646.6317
1.5268507  7647.1492
1.5298119  7652.5383
1.5327731  7650.5246
1.5357343  7646.5475
1.5386955  7643.9349
1.5416567  7646.4816
1.5446178  7649.4452
1.547579  7650.5587
1.5505402  7650.7504
1.5535014  7653.9964
1.5564626  7659.7273
1.5594238  7664.4557
1.562385  7665.5505
1.5653461  7664.5306
1.5683073  7660.6764
1.5712685  7659.0174
1.5742297  7654.5213
1.5771909  7653.5386
1.5801521  7651.0797
1.5831132  7647.8049
1.5860744  7642.9476
1.5890356  7638.0402
1.5919968  7633.9746
1.594958  7631.5098
1.5979192  7626.7456
1.6008804  7622.5794
1.6038415  7620.6036
1.6068027  7620.5866
1.6097639  7618.5243
1.6127251  7612.9738
1.6156863  7608.4514
1.6186475  7601.3322
1.6216086  7597.1862
1.6245698  7591.633
1.627531  7586.2622
1.6304922  7583.022
1.6334534  7584.189
1.6364146  7587.9812
1.6393758  7595.3931
1.6423369  7600.1456
1.6452981  7601.0068
1.6482593  7597.3697
1.6512205  7595.0259
1.6541817  7594.3322
1.6571429  7593.9691
1.660104  7590.6594
1.6630652  7591.3286
1.6660264  7592.6183
1.6689876  7595.3031
1.6719488  7595.1137
1.67491  7595.8427
1.6778711  7597.7292
1.6808323  7603.2594
1.6837935  7608.0217
1.6867547  7609.5633
1.6897159  7607.1029
1.6926771  7607.9178
1.6956383  7609.5827
1.6985994  7608.6135
1.7015606  7606.9633
1.7045218  7606.3324
1.707483  7606.4193
1.7104442  7604.1145
1.7134054  7600.15
1.7163665  7595.6278
1.7193277  7592.2487
1.7222889  7588.8092
1.7252501  7585.2375
1.7282113  7583.7196
1.7311725  7584.5118
1.7341337  7581.958
1.7370948  7576.1226
1.740056  7569.9609
1.7430172  7567.006
1.7459784  7563.6065
1.7489396  7566.5146
1.7519008  7567.7752
1.7548619  7570.1654
1.7578231  7570.4874
1.7607843  7571.0936
1.7637455  7572.3422
1.7667067  7577.5496
1.7696679  7581.4812
1.7726291  7586.7884
1.7755902  7589.9269
1.7785514  7595.5661
1.7815126  7599.0954
1.7844738  7602.684
1.787435  7605.7592
1.7903962  7611.1946
1.7933573  7614.6796
1.7963185  7617.9468
1.7992797  7621.182
1.8022409  7622.7122
1.8052021  7621.3689
1.8081633  7615.9543
1.8111244  7614.9904
1.8140856  7615.8139
1.8170468  7620.7948
1.820008  7622.2179
1.8229692  7621.7034
1.8259304  7621.5595
1.8288916  7623.193
1.8318527  7624.3956
1.8348139  7628.7331
1.8377751  7625.7379
1.8407363  7623.887
1.8436975  7622.2366
1.8466587  7621.2223
1.8496198  7621.0936
1.852581  7622.5015
1.8555422  7623.4073
1.8585034  7625.9299
1.8614646  7627.0756
1.8644258  7628.4329
1.867387  7627.6484
1.8703481  7627.7449
1.8733093  7630.3835
1.8762705  7633.4025
1.8792317  7641.6311
1.8821929  7650.9105
1.8851541  7657.511
1.8881152  7660.7816
1.8910764  7664.9757
1.8940376  7668.6269
1.8969988  7676.0352
1.89996  7680.6709
1.9029212  7690.2215
1.9058824  7699.9683
1.9088435  7709.7496
1.9118047  7716.39
1.9147659  7720.1424
1.9177271  7718.0054
1.9206883  7718.238
1.9236495  7720.2784
1.9266106  7725.4241
1.9295718  7730.0691
1.932533  7731.9598
1.9354942  7732.8176
1.9384554  7731.733
1.9414166  7731.4776
1.9443778  7732.0462
1.9473389  7730.0518
1.9503001  7730.8655
1.9532613  7733.86
1.9562225  7737.2236
1.9591837  7742.4274
1.9621449  7744.8062
1.965106  7745.7758
1.9680672  7744.5391
1.9710284  7745.6511
1.9739896  7748.1395
1.9769508  7750.1728
1.979912  7751.7801
1.9828731  7756.1453
1.9858343  7760.0903
1.9887955  7764.6118
1.9917567  7765.8282
1.9947179  7767.5192
1.9976791  7771.5826
2.0006403  7781.7551
2.0036014  7789.7341
2.0065626  7796.0611
2.0095238  7799.2104
2.012485  7803.1132
2.0154462  7806.3372
2.0184074  7813.1264
2.0213685  7821.443
2.0243297  7829.0417
2.0272909  7837.9374
2.0302521  7843.7889
2.0332133  7848.8575
2.0361745  7852.1241
2.0391357  7856.1304
2.0420968  7858.1417
2.045058  7860.5023
2.0480192  7862.0863
2.0509804  7866.5918
2.0539416  7866.2179
2.0569028  7867.8262
2.0598639  7870.8099
2.0628251  7878.0307
2.0657863  7884.1759
2.0687475  7889.269
2.0717087  7889.9563
2.0746699  7893.013
2.0776311  7894.3686
2.0805922  7896.8003
2.0835534  7901.2437
2.0865146  7907.0074
2.0894758  7913.798
2.092437  7922.1925
2.0953982  7925.8803
2.0983593  7929.0654
2.1013205  7928.9862
2.1042817  7929.7591
2.1072429  7934.0568
2.1102041  7941.8734
2.1131653  7952.1171
2.1161265  7958.6259
2.1190876  7968.0564
2.1220488  7976.7549
2.12501  7984.0606
2.1279712  7989.6138
2.1309324  7994.3527
2.1338936  7997.415
2.1368547  8005.8234
2.1398159  8013.0719
2.1427771  8020.7952
2.1457383  8024.6822
2.1486995  8029.4313
2.1516607  8031.5214
2.1546218  8035.5729
2.157583  8040.0808
2.1605442  8048.688
2.1635054  8054.6444
2.1664666  8057.1281
2.1694278  8056.956
2.172389  8054.5884
2.1753501  8052.6308
2.1783113  8053.6816
2.1812725  8056.5134
2.1842337  8060.6203
2.1871949  8066.2636
2.1901561  8073.1495
2.1931172  8079.7423
2.1960784  8083.8442
2.1990396  8093.2075
2.2020008  8100.2521
2.204962  8104.2147
2.2079232  8106.8366
2.2108844  8110.9486
2.2138455  8117.3517
2.2168067  8124.9541
2.2197679  8127.1335
2.2227291  8131.6113
2.2256903  8136.0364
2.2286515  8144.6132
2.2316126  8153.3437
2.2345738  8160.7188
2.237535  8167.8468
2.2404962  8174.8368
2.2434574  8183.167
2.2464186  8190.4397
2.2493798  8196.3782
2.2523409  8201.6421
2.2553021  8204.5167
2.2582633  8206.2285
2.2612245  8206.8253
2.2641857  8203.677
2.2671469  8206.1347
2.270108  8207.4308
2.2730692  8210.9321
2.2760304  8216.0825
2.2789916  8223.8532
2.2819528  8230.7952
2.284914  8236.259
2.2878752  8239.6415
2.2908363  8246.5936
2.2937975  8251.5967
2.2967587  8256.493
2.2997199  8256.7124
2.3026811  8253.8243
2.3056423  8253.5388
2.3086034  8257.112
2.3115646  8262.9217
2.3145258  8271.0846
2.317487  8280.5556
2.3204482  8287.5553
2.3234094  8290.9474
2.3263705  8289.3634
2.3293317  8288.6754
2.3322929  8290.3089
2.3352541  8295.5128
2.3382153  8301.0627
2.3411765  8305.7471
2.3441377  8308.6281
2.3470988  8312.9406
2.35006  8318.2261
2.3530212  8325.6473
2.3559824  8333.5369
2.3589436  8342.5837
2.3619048  8353.254
2.3648659  8362.9371
2.3678271  8367.5253
2.3707883  8367.5092
2.3737495  8368.0797
2.3767107  8373.1243
2.3796719  8378.1711
2.3826331  8381.6708
2.3855942  8386.3349
2.3885554  8391.3219
2.3915166  8395.357
2.3944778  8396.3049
2.397439  8400.8749
2.4004002  8411.3053
2.4033613  8419.549
2.4063225  8425.2447
2.4092837  8429.0301
2.4122449  8429.9413
2.4152061  8432.1513
2.4181673  8433.711
2.4211285  8439.3577
2.4240896  8442.7051
2.4270508  8443.516
2.430012  8443.5487
2.4329732  8445.0652
2.4359344  8450.0002
2.4388956  8456.7807
2.4418567  8463.1763
2.4448179  8469.7063
2.4477791  8475.3783
2.4507403  8479.3984
2.4537015  8482.031
2.4566627  8483.682
2.4596238  8485.288
2.462585  8487.376
2.4655462  8494.6858
2.4685074  8503.8814
2.4714686  8512.6554
2.4744298  8521.4312
2.477391  8528.5246
2.4803521  8534.1534
2.4833133  8543.3783
2.4862745  8548.3507
2.4892357  8549.7178
2.4921969  8548.3328
2.4951581  8548.2944
2.4981192  8551.8313
2.5010804  8558.6694
2.5040416  8561.6341
2.5070028  8566.2989
2.509964  8572.0514
2.5129252  8580.8692
2.5158864  8588.9529
2.5188475  8595.0675
2.5218087  8602.925
2.5247699  8609.458
2.5277311  8617.3425
2.5306923  8622.1516
2.5336535  8625.0619
2.5366146  8627.2367
2.5395758  8630.8903
2.542537  8635.1469
2.5454982  8639.5279
2.5484594  8643.314
2.5514206  8650.0223
2.5543818  8659.3688
2.5573429  8669.6745
2.5603041  8678.0992
2.5632653  8684.28
2.5662265  8689.5005
2.5691877  8697.8511
2.5721489  8704.6309
2.57511  8712.5804
2.5780712  8719.9477
2.5810324  8725.1077
2.5839936  8731.327
2.5869548  8735.9535
2.589916  8739.9772
2.5928772  8742.3631
2.5958383  8746.6635
2.5987995  8749.6578
2.6017607  8750.5564
2.6047219  8750.8626
2.6076831  8751.576
2.6106443  8752.7805
2.6136054  8754.3345
2.6165666  8759.811
2.6195278  8767.4517
2.622489  8772.7175
2.6254502  8775.4299
2.6284114  8778.4543
2.6313725  8786.1587
2.6343337  8793.3376
2.6372949  8803.3007
2.6402561  8810.9826
2.6432173  8818.0555
2.6461785  8824.4081
2.6491397  8829.8986
2.6521008  8835.9584
2.655062  8841.6676
2.6580232  8847.1779
2.6609844  8853.8566
2.6639456  8860.7491
2.6669068  8868.8544
2.6698679  8876.277
2.6728291  8881.5447
2.6757903  8888.2874
2.6787515  8893.9049
2.6817127  8899.7909
2.6846739  8901.5764
2.6876351  8902.9318
2.6905962  8906.66
2.6935574  8909.4855
2.6965186  8911.9843
2.6994798  8920.0746
2.702441  8926.7861
2.7054022  8934.8089
2.7083633  8937.614
2.7113245  8936.4475
2.7142857  8936.1147
2.7172469  8936.9817
2.7202081  8940.1781
2.7231693  8943.0805
2.7261305  8946.7579
2.7290916  8952.515
2.7320528  8955.8576
2.735014  8959.1438
2.7379752  8965.0863
2.7409364  8969.7944
2.7438976  8976.0367
2.7468587  8981.98
2.7498199  8986.7544
2.7527811  8985.8447
2.7557423  8981.247
2.7587035  8983.2867
2.7616647  8989.8382
2.7646259  8998.8104
2.767587  9007.9957
2.7705482  9012.5302
2.7735094  9019.0882
2.7764706  9026.1697
2.7794318  9029.5509
2.782393  9036.4449
2.7853541  9042.3118
2.7883153  9048.8511
2.7912765  9051.3072
2.7942377  9054.5696
2.7971989  9062.5651
2.8001601  9071.443
2.8031212  9079.524
2.8060824  9089.6911
2.8090436  9094.6106
2.8120048  9098.9152
2.814966  9099.7514
2.8179272  9101.8291
2.8208884  9106.1765
2.8238495  9112.833
2.8268107  9123.1028
2.8297719  9128.6487
2.8327331  9134.6124
2.8356943  9142.1504
2.8386555  9151.4851
2.8416166  9162.1849
2.8445778  9172.3258
2.847539  9178.4734
2.8505002  9185.6009
2.8534614  9189.4393
2.8564226  9196.7848
2.8593838  9206.8272
2.8623449  9216.8162
2.8653061  9226.3396
2.8682673  9232.0134
2.8712285  9238.0966
2.8741897  9244.0289
2.8771509  9248.9398
2.880112  9249.3829
2.8830732  9246.0111
2.8860344  9247.4383
2.8889956  9253.7776
2.8919568  9258.3558
2.894918  9263.0117
2.8978792  9261.4268
2.9008403  9259.9747
2.9038015  9261.8388
2.9067627  9266.4563
2.9097239  9271.3906
2.9126851  9273.9947
2.9156463  9274.0645
2.9186074  9277.7912
2.9215686  9280.3274
2.9245298  9282.6674
2.927491  9285.5369
2.9304522  9289.6387
2.9334134  9294.5233
2.9363745  9297.3109
2.9393357  9301.1805
2.9422969  9305.2781
2.9452581  9308.328
2.9482193  9312.5907
2.9511805  9318.3149
2.9541417  9326.0326
2.9571028  9335.3383
2.960064  9345.5997
2.9630252  9356.4465
2.9659864  9363.7505
2.9689476  9366.7915
2.9719088  9372.188
2.9748699  9382.2556
2.9778311  9396.6464
2.9807923  9407.1256
2.9837535  9416.0888
2.9867147  9429.8196
2.9896759  9443.9853
2.9926371  9455.7832
2.9955982  9466.8098
2.9985594  9480.786
3.0015206  9498.1376
3.0044818  9515.4997
3.007443  9532.8617
3.0104042  9550.2238
3.0133653  9567.5859
3.0163265  9584.948
3.0192877  9602.3101
3.0222489  9619.6722
3.0252101  9634.2845
3.0281713  9638.0707
3.0311325  9639.3356
3.0340936  9639.6955
3.0370548  9644.1243
3.040016  9649.6239
3.0429772  9655.1235
3.0459384  9660.6231
3.0488996  9666.7892
3.0518607  9676.292
3.0548219  9689.4742
3.0577831  9707.4269
3.0607443  9725.1183
3.0637055  9744.9438
3.0666667  9765.6791
3.0696279  9796.6657
3.072589  9830.8238
3.0755502  9862.4651
3.0785114  9890.7595
3.0814726  9920.6995
3.0844338  9951.152
3.087395  9981.8507
3.0903561  10008.801
3.0933173  10028.135
3.0962785  10038.168
3.0992397  10042.532
3.1022009  10048.752
3.1051621  10048.809
3.1081232  10047.137
3.1110844  10044.751
3.1140456  10038.309
3.1170068  10030.102
3.119968  10020.303
3.1229292  10008.787
3.1258904  9991.1911
3.1288515  9968.9036
3.1318127  9938.9745
3.1347739  9908.9026
3.1377351  9881.9167
3.1406963  9859.4759
3.1436575  9841.2358
3.1466186  9826.9151
3.1495798  9811.1598
3.152541  9799.8918
3.1555022  9788.0592
3.1584634  9778.3087
3.1614246  9771.8602
3.1643858  9769.9336
3.1673469  9771.0873
3.1703081  9773.8523
3.1732693  9775.6166
3.1762305  9775.919
3.1791917  9772.3749
3.1821529  9771.4272
3.185114  9778.0901
3.1880752  9790.4689
3.1910364  9803.6406
3.1939976  9807.7585
3.1969588  9808.0861
3.19992  9806.6982
3.2028812  9809.9436
3.2058423  9818.0972
3.2088035  9828.9561
3.2117647  9840.8972
3.2147259  9854.6113
3.2176871  9860.8046
3.2206483  9865.0265
3.2236094  9867.6506
3.2265706  9869.3206
3.2295318  9871.0271
3.232493  9872.3976
3.2354542  9876.1631
3.2384154  9883.7
3.2413766  9893.7693
3.2443377  9898.9407
3.2472989  9900.8625
3.2502601  9901.381
3.2532213  9906.3603
3.2561825  9914.6339
3.2591437  9923.7925
3.2621048  9929.4675
3.265066  9930.2077
3.2680272  9924.5883
3.2709884  9917.0963
3.2739496  9915.6394
3.2769108  9920.7271
3.2798719  9930.34
3.2828331  9940.7285
3.2857943  9949.2337
3.2887555  9952.8945
3.2917167  9953.1608
3.2946779  9949.5535
3.2976391  9949.0793
3.3006002  9954.7698
3.3035614  9966.3751
3.3065226  9975.2064
3.3094838  9977.4596
3.312445  9971.5484
3.3154062  9967.4552
3.3183673  9971.4426
3.3213285  9980.438
3.3242897  9992.3312
3.3272509  9995.6655
3.3302121  9998.083
3.3331733  10002.017
3.3361345  10007.555
3.3390956  10010.188
3.3420568  10009.776
3.345018  10006.707
3.3479792  10011.77
3.3509404  10021.492
3.3539016  10030.569
3.3568627  10033.822
3.3598239  10030.964
3.3627851  10026.56
3.3657463  10024.022
3.3687075  10029.123
3.3716687  10035.468
3.3746299  10044.418
3.377591  10052.241
3.3805522  10059.178
3.3835134  10062.639
3.3864746  10062.622
3.3894358  10060.956
3.392397  10062.807
3.3953581  10068.817
3.3983193  10077.289
3.4012805  10082.576
3.4042417  10085.322
3.4072029  10087.598
3.4101641  10094.564
3.4131253  10108.595
3.4160864  10121.97
3.4190476  10130.397
3.4220088  10131.051
3.42497  10131.957
3.4279312  10136.451
3.4308924  10143.815
3.4338535  10153.234
3.4368147  10159.559
3.4397759  10166.282
3.4427371  10177.414
3.4456983  10185.843
3.4486595  10190.464
3.4516206  10192.848
3.4545818  10192.464
3.457543  10196.435
3.4605042  10205.942
3.4634654  10219.25
3.4664266  10232.402
3.4693878  10237.665
3.4723489  10234.667
3.4753101  10233.741
3.4782713  10232.099
3.4812325  10236.823
3.4841937  10248.311
3.4871549  10262.915
3.490116  10275.541
3.4930772  10280.006
3.4960384  10276.638
3.4989996  10275.75
3.5019608  10279.537
3.504922  10290.523
3.5078832  10306.792
3.5108443  10315.544
3.5138055  10313.932
3.5167667  10302.633
3.5197279  10297.304
3.5226891  10302.759
3.5256503  10319.231
3.5286114  10337.131
3.5315726  10350.938
3.5345338  10354.435
3.537495  10347.755
3.5404562  10334.274
3.5434174  10330.66
3.5463786  10337.704
3.5493397  10348.641
3.5523009  10357.784
3.5552621  10358.881
3.5582233  10360.591
3.5611845  10364.304
3.5641457  10365.86
3.5671068  10361.069
3.570068  10356.838
3.5730292  10355.149
3.5759904  10362.445
3.5789516  10376.409
3.5819128  10385.511
3.5848739  10383.19
3.5878351  10372.99
3.5907963  10366.828
3.5937575  10370.786
3.5967187  10381.484
3.5996799  10393.583
3.6026411  10401.098
3.6056022  10397.967
3.6085634  10396.027
3.6115246  10393.827
3.6144858  10393.389
3.617447  10397.919
3.6204082  10405.966
3.6233693  10419.085
3.6263305  10431.91
3.6292917  10436.802
3.6322529  10434.433
3.6352141  10431.228
3.6381753  10437.234
3.6411365  10455.094
3.6440976  10471.263
3.6470588  10479.618
3.65002  10476.194
3.6529812  10476.512
3.6559424  10483.784
3.6589036  10496.389
3.6618647  10505.496
3.6648259  10507.996
3.6677871  10510.208
3.6707483  10517.005
3.6737095  10531.187
3.6766707  10542.004
3.6796319  10544.595
3.682593  10538.756
3.6855542  10537.789
3.6885154  10549.809
3.6914766  10562.848
3.6944378  10565.977
3.697399  10564.771
3.7003601  10562.657
3.7033213  10564.401
3.7062825  10569.827
3.7092437  10571.661
3.7122049  10574.125
3.7151661  10574.212
3.7181273  10577.213
3.7210884  10580.816
3.7240496  10585.114
3.7270108  10588.559
3.729972  10593.822
3.7329332  10602.148
3.7358944  10614.038
3.7388555  10620.718
3.7418167  10621.995
3.7447779  10622.037
3.7477391  10624.297
3.7507003  10632.835
3.7536615  10643.501
3.7566226  10654.875
3.7595838  10660.198
3.762545  10666.797
3.7655062  10674.257
3.7684674  10681.5
3.7714286  10684.102
3.7743898  10683.786
3.7773509  10690.001
3.7803121  10698.69
3.7832733  10710.441
3.7862345  10716.604
3.7891957  10718.854
3.7921569  10722.668
3.795118  10727.307
3.7980792  10725.016
3.8010404  10731.311
3.8040016  10736.076
3.8069628  10736.182
3.809924  10728.661
3.8128852  10723.776
3.8158463  10728.348
3.8188075  10733.035
3.8217687  10739.113
3.8247299  10739.37
3.8276911  10740.315
3.8306523  10741.254
3.8336134  10740.965
3.8365746  10736.048
3.8395358  10733.471
3.842497  10737.123
3.8454582  10744.916
3.8484194  10750.724
3.8513806  10754.161
3.8543417  10756.944
3.8573029  10760.044
3.8602641  10767.81
3.8632253  10773.542
3.8661865  10776.914
3.8691477  10773.879
3.8721088  10773.445
3.87507  10780.114
3.8780312  10790.704
3.8809924  10798.188
3.8839536  10796.216
3.8869148  10796.339
3.889876  10801.222
3.8928371  10810.204
3.8957983  10814.281
3.8987595  10816.414
3.9017207  10815.138
3.9046819  10817.862
3.9076431  10821.537
3.9106042  10828.035
3.9135654  10827.448
3.9165266  10828.971
3.9194878  10831.585
3.922449  10835.175
3.9254102  10841.492
3.9283713  10841.505
3.9313325  10849.152
3.9342937  10858.987
3.9372549  10867.43
3.9402161  10870.84
3.9431773  10869.454
3.9461385  10869.106
3.9490996  10875.066
3.9520608  10885.694
3.955022  10899.971
3.9579832  10910.125
3.9609444  10910.884
3.9639056  10908.778
3.9668667  10908.388
3.9698279  10918.92
3.9727891  10934.368
3.9757503  10949.76
3.9787115  10955.237
3.9816727  10956.452
3.9846339  10955.89
3.987595  10955.53
3.9905562  10960.996
3.9935174  10965.331
3.9964786  10970.927
3.9994398  10976.579
4.002401  10983.945
4.0053621  10988.736
4.0083233  10992.773
4.0112845  10994.381
4.0142457  10996.619
4.0172069  11000.369
4.0201681  11007.108
4.0231293  11010.575
4.0260904  11009.791
4.0290516  11010.664
4.0320128  11011.985
4.034974  11018.092
4.0379352  11024.955
4.0408964  11034.87
4.0438575  11043.548
4.0468187  11050.481
4.0497799  11049.629
4.0527411  11046.966
4.0557023  11050.774
4.0586635  11057.127
4.0616246  11069.414
4.0645858  11079.186
4.067547  11084.386
4.0705082  11085.529
4.0734694  11085.296
4.0764306  11084.658
4.0793918  11089.939
4.0823529  11097.657
4.0853141  11104.143
4.0882753  11103.936
4.0912365  11101.305
4.0941977  11102.736
4.0971589  11105.738
4.10012  11111.073
4.1030812  11112.111
4.1060424  11114.074
4.1090036  11117.36
4.1119648  11121.747
4.114926  11124.626
4.1178872  11122.764
4.1208483  11118.971
4.1238095  11115.754
4.1267707  11119.514
4.1297319  11124.389
4.1326931  11127.832
4.1356543  11128.912
4.1386154  11128.36
4.1415766  11126.621
4.1445378  11128.514
4.147499  11131.465
4.1504602  11142.294
4.1534214  11153.647
4.1563826  11163.409
4.1593437  11168.994
4.1623049  11169.883
4.1652661  11172.807
4.1682273  11172.893
4.1711885  11177.835
4.1741497  11183.347
4.1771108  11186.865
4.180072  11188.195
4.1830332  11188.783
4.1859944  11193.539
4.1889556  11201.903
4.1919168  11211.765
4.194878  11213.908
4.1978391  11214.627
4.2008003  11219.05
4.2037615  11226.146
4.2067227  11231.602
4.2096839  11235.789
4.2126451  11235.357
4.2156062  11238.139
4.2185674  11243.806
4.2215286  11249.016
4.2244898  11251.596
4.227451  11249.294
4.2304122  11250.223
4.2333733  11254.246
4.2363345  11262.545
4.2392957  11270.824
4.2422569  11276.388
4.2452181  11281.099
4.2481793  11285.938
4.2511405  11289.015
4.2541016  11288.701
4.2570628  11286.903
4.260024  11288.524
4.2629852  11295.192
4.2659464  11301.138
4.2689076  11306.366
4.2718687  11310.164
4.2748299  11313.151
4.2777911  11316.929
4.2807523  11324.134
4.2837135  11327.788
4.2866747  11328.29
4.2896359  11331.052
4.292597  11332.201
4.2955582  11339.608
4.2985194  11344.957
4.3014806  11348.719
4.3044418  11351.428
4.307403  11356.265
4.3103641  11364.972
4.3133253  11373.23
4.3162865  11379.631
4.3192477  11377.342
4.3222089  11378.172
4.3251701  11380.252
4.3281313  11387.748
4.3310924  11396.194
4.3340536  11400.445
4.3370148  11403.48
4.339976  11402.394
4.3429372  11403.502
4.3458984  11405.67
4.3488595  11408.76
4.3518207  11409.833
4.3547819  11414.416
4.3577431  11420.243
4.3607043  11425.289
4.3636655  11423.16
4.3666267  11422.283
4.3695878  11423.148
4.372549  11424.615
4.3755102  11427.6
4.3784714  11430.353
4.3814326  11438.612
4.3843938  11447.229
4.3873549  11455.517
4.3903161  11457.996
4.3932773  11456.945
4.3962385  11456.256
4.3991997  11459.31
4.4021609  11469.698
4.405122  11477.033
4.4080832  11479.917
4.4110444  11478.303
4.4140056  11477.748
4.4169668  11482.082
4.419928  11491.484
4.4228892  11502.732
4.4258503  11507.467
4.4288115  11505.12
4.4317727  11503.981
4.4347339  11506.977
4.4376951  11511.232
4.4406563  11512.729
4.4436174  11507.453
4.4465786  11505.374
4.4495398  11509.922
4.452501  11521.158
4.4554622  11525.785
4.4584234  11520.303
4.4613846  11510.843
4.4643457  11503.893
4.4673069  11508.765
4.4702681  11513.642
4.4732293  11522.998
4.4761905  11533.186
4.4791517  11539.404
4.4821128  11539.733
4.485074  11533.776
4.4880352  11527.829
4.4909964  11531.331
4.4939576  11546.689
4.4969188  11559.622
4.49988  11570.134
4.5028411  11573.801
4.5058023  11572.506
4.5087635  11577.626
4.5117247  11587.904
4.5146859  11600.287
4.5176471  11607.225
4.5206082  11609.305
4.5235694  11609.626
4.5265306  11615.131
4.5294918  11623.16
4.532453  11632.544
4.5354142  11636.327
4.5383754  11637.543
4.5413365  11643.763
4.5442977  11651.786
4.5472589  11649.945
4.5502201  11643.746
4.5531813  11645.025
4.5561425  11642.981
4.5591036  11651.328
4.5620648  11657.911
4.565026  11656.598
4.5679872  11651.6
4.5709484  11645.361
4.5739096  11643.881
4.5768707  11645.263
4.5798319  11655.412
4.5827931  11667.773
4.5857543  11678.386
4.5887155  11679.044
4.5916767  11670.141
4.5946379  11666.433
4.597599  11668.986
4.6005602  11682.266
4.6035214  11697.429
4.6064826  11707.125
4.6094438  11708.131
4.612405  11706.906
4.6153661  11709.105
4.6183273  11719.344
4.6212885  11732.111
4.6242497  11736.848
4.6272109  11736.912
4.6301721  11734.565
4.6331333  11734.511
4.6360944  11739.921
4.6390556  11748.73
4.6420168  11751.164
4.644978  11752.087
4.6479392  11752.791
4.6509004  11755.448
4.6538615  11758.333
4.6568227  11756.874
4.6597839  11756.812
4.6627451  11759.169
4.6657063  11767.437
4.6686675  11774.002
4.6716287  11773.099
4.6745898  11767.851
4.677551  11765.2
4.6805122  11768.77
4.6834734  11773.259
4.6864346  11784.427
4.6893958  11785.98
4.6923569  11783.929
4.6953181  11781.513
4.6982793  11779.877
4.7012405  11783.28
4.7042017  11786.936
4.7071629  11789.571
4.710124  11791.487
4.7130852  11795.061
4.7160464  11794.762
4.7190076  11791.909
4.7219688  11790.866
4.72493  11791.883
4.7278912  11805.384
4.7308523  11813.855
4.7338135  11817.708
4.7367747  11816.727
4.7397359  11815.881
4.7426971  11819.784
4.7456583  11825.329
4.7486194  11825.685
4.7515806  11823.624
4.7545418  11826.632
4.757503  11832.069
4.7604642  11835.057
4.7634254  11834.812
4.7663866  11833.555
4.7693477  11837.946
4.7723089  11850.08
4.7752701  11854.548
4.7782313  11851.976
4.7811925  11849.353
4.7841537  11849.402
4.7871148  11850.516
4.790076  11854.795
4.7930372  11864.383
4.7959984  11874.289
4.7989596  11883.574
4.8019208  11885.461
4.804882  11882.825
4.8078431  11884.336
4.8108043  11887.459
4.8137655  11895.676
4.8167267  11902.713
4.8196879  11907.763
4.8226491  11909.004
4.8256102  11907.381
4.8285714  11908.653
4.8315326  11915.283
4.8344938  11927.927
4.837455  11931.934
4.8404162  11931.78
4.8433774  11930.431
4.8463385  11933.31
4.8492997  11939.299
4.8522609  11940.867
4.8552221  11939.739
4.8581833  11938.544
4.8611445  11946.2
4.8641056  11954.666
4.8670668  11957.297
4.870028  11953.699
4.8729892  11950.297
4.8759504  11952.973
4.8789116  11957.831
4.8818727  11962.853
4.8848339  11965.293
4.8877951  11967.012
4.8907563  11967.604
4.8937175  11968.766
4.8966787  11971.333
4.8996399  11974.363
4.902601  11980.05
4.9055622  11985.036
4.9085234  11987.669
4.9114846  11990.308
4.9144458  11994.262
4.917407  11999.692
4.9203681  12010.683
4.9233293  12019.716
4.9262905  12026.992
4.9292517  12029.631
4.9322129  12029.776
4.9351741  12034.574
4.9381353  12045.521
4.9410964  12059.211
4.9440576  12059.716
4.9470188  12054.973
4.94998  12054.314
4.9529412  12059.326
4.9559024  12063.662
4.9588635  12064.281
4.9618247  12062.863
4.9647859  12060.697
4.9677471  12063.328
4.9707083  12068.958
4.9736695  12069.945
4.9766307  12061.102
4.9795918  12052.026
4.982553  12053.222
4.9855142  12058.731
4.9884754  12062.543
4.9914366  12057.598
4.9943978  12052.795
4.9973589  12049.022
5.0003201  12044.34
5.0032813  12040.389
5.0062425  12040.193
5.0092037  12050.058
5.0121649  12055.474
5.0151261  12054.891
5.0180872  12048.19
5.0210484  12041.538
5.0240096  12043.359
5.0269708  12053.109
5.029932  12068.244
5.0328932  12074.063
5.0358543  12073.423
5.0388155  12071.248
5.0417767  12075.89
5.0447379  12088.081
5.0476991  12094.937
5.0506603  12093.85
5.0536214  12087.005
5.0565826  12085.826
5.0595438  12086.938
5.062505  12090.815
5.0654662  12092.04
5.0684274  12090.416
5.0713886  12095.519
5.0743497  12100.9
5.0773109  12104.199
5.0802721  12098.474
5.0832333  12089.526
5.0861945  12085.245
5.0891557  12087.261
5.0921168  12094.527
5.095078  12093.723
5.0980392  12091.629
5.1010004  12087.743
5.1039616  12086.718
5.1069228  12088.1
5.109884  12087.44
5.1128451  12087.484
5.1158063  12091.183
5.1187675  12097.877
5.1217287  12096.264
5.1246899  12091.948
5.1276511  12092.068
5.1306122  12098.181
5.1335734  12110.568
5.1365346  12117.494
5.1394958  12115.804
5.142457  12108.886
5.1454182  12108.244
5.1483794  12115.884
5.1513405  12125.893
5.1543017  12130.983
5.1572629  12127.253
5.1602241  12127.29
5.1631853  12126.857
5.1661465  12130.42
5.1691076  12135.949
5.1720688  12140.702
5.17503  12147.034
5.1779912  12151.211
5.1809524  12156.072
5.1839136  12151.984
5.1868747  12146.309
5.1898359  12140.378
5.1927971  12139.758
5.1957583  12143.896
5.1987195  12145.971
5.2016807  12145.201
5.2046419  12140.06
5.207603  12141.864
5.2105642  12145.825
5.2135254  12148.001
5.2164866  12147.948
5.2194478  12148.062
5.222409  12154.553
5.2253701  12156.696
5.2283313  12154.486
5.2312925  12149.021
5.2342537  12148.884
5.2372149  12156.903
5.2401761  12166.404
5.2431373  12171.296
5.2460984  12165.348
5.2490596  12160.677
5.2520208  12162.194
5.254982  12167.934
5.2579432  12171.746
5.2609044  12172.619
5.2638655  12174.815
5.2668267  12175.771
5.2697879  12180.814
5.2727491  12187.304
5.2757103  12186.539
5.2786715  12181.849
5.2816327  12180.456
5.2845938  12183.129
5.287555  12183.358
5.2905162  12180.597
5.2934774  12177.693
5.2964386  12178.681
5.2993998  12181.757
5.3023609  12185.046
5.3053221  12186.322
5.3082833  12182.76
5.3112445  12181.842
5.3142057  12184.348
5.3171669  12183.765
5.3201281  12179.669
5.3230892  12181.78
5.3260504  12188.216
5.3290116  12189.142
5.3319728  12185.81
5.334934  12183.928
5.3378952  12185.96
5.3408563  12189.378
5.3438175  12190.658
5.3467787  12189.649
5.3497399  12187.174
5.3527011  12186.93
5.3556623  12189.147
5.3586234  12189.481
5.3615846  12186.522
5.3645458  12186.091
5.367507  12190.837
5.3704682  12193.843
5.3734294  12191.193
5.3763906  12190.498
5.3793517  12186.398
5.3823129  12181.342
5.3852741  12180.579
5.3882353  12184.452
5.3911965  12185.155
5.3941577  12176.735
5.3971188  12167.884
5.40008  12166.223
5.4030412  12167.845
5.4060024  12168.408
5.4089636  12167.535
5.4119248  12166.215
5.414886  12166.123
5.4178471  12164.324
5.4208083  12161.542
5.4237695  12161.002
5.4267307  12161.799
5.4296919  12161.512
5.4326531  12159.511
5.4356142  12154.834
5.4385754  12149.52
5.4415366  12147.002
5.4444978  12151.171
5.447459  12158.417
5.4504202  12161.325
5.4533814  12156.052
5.4563425  12148.46
5.4593037  12146.242
5.4622649  12153.501
5.4652261  12160.896
5.4681873  12160.585
5.4711485  12158.956
5.4741096  12161.676
5.4770708  12165.063
5.480032  12162.724
5.4829932  12159.349
5.4859544  12155.348
5.4889156  12155.341
5.4918768  12158.301
5.4948379  12157.868
5.4977991  12150.794
5.5007603  12139.351
5.5037215  12131.86
5.5066827  12129.848
5.5096439  12136.679
5.512605  12138.336
5.5155662  12135.298
5.5185274  12130.527
5.5214886  12127.452
5.5244498  12127.679
5.527411  12127.408
5.5303721  12130.105
5.5333333  12135.076
5.5362945  12139.233
5.5392557  12138.383
5.5422169  12135.654
5.5451781  12139.255
5.5481393  12146.501
5.5511004  12152.191
5.5540616  12147.304
5.5570228  12140.314
5.559984  12139.361
5.5629452  12144.291
5.5659064  12147.334
5.5688675  12144.565
5.5718287  12139.088
5.5747899  12135.513
5.5777511  12133.633
5.5807123  12129.752
5.5836735  12125.022
5.5866347  12120.408
5.5895958  12118.398
5.592557  12114.991
5.5955182  12111.255
5.5984794  12104.883
5.6014406  12096.073
5.6044018  12088.817
5.6073629  12085.908
5.6103241  12085.211
5.6132853  12081.36
5.6162465  12080.163
5.6192077  12075.699
5.6221689  12068.571
5.6251301  12064.4
5.6280912  12062.859
5.6310524  12062.748
5.6340136  12064.077
5.6369748  12065.174
5.639936  12061.475
5.6428972  12054.774
5.6458583  12048.843
5.6488195  12051.469
5.6517807  12061.691
5.6547419  12068.076
5.6577031  12064.827
5.6606643  12063.12
5.6636255  12064.497
5.6665866  12066.135
5.6695478  12068.8
5.672509  12067.649
5.6754702  12061.022
5.6784314  12058.034
5.6813926  12062.527
5.6843537  12064.623
5.6873149  12059.499
5.6902761  12056.92
5.6932373  12059.645
5.6961985  12061.436
5.6991597  12060.695
5.7021208  12053.741
5.705082  12047.119
5.7080432  12046.596
5.7110044  12047.642
5.7139656  12046.324
5.7169268  12044.076
5.719888  12044.57
5.7228491  12041.615
5.7258103  12038.306
5.7287715  12038.815
5.7317327  12043.21
5.7346939  12043.493
5.7376551  12040.746
5.7406162  12040.575
5.7435774  12033.279
5.7465386  12023.662
5.7494998  12019.593
5.752461  12023.937
5.7554222  12027.6
5.7583834  12024.398
5.7613445  12020.567
5.7643057  12018.6
5.7672669  12022.981
5.7702281  12026.372
5.7731893  12024.627
5.7761505  12021.743
5.7791116  12024.502
5.7820728  12031.132
5.785034  12031.867
5.7879952  12022.041
5.7909564  12013.253
5.7939176  12014.404
5.7968788  12023.625
5.7998399  12027.937
5.8028011  12020.939
5.8057623  12014.824
5.8087235  12008.147
5.8116847  12007.106
5.8146459  12011.319
5.817607  12013.722
5.8205682  12009.531
5.8235294  12001.013
5.8264906  11992.125
5.8294518  11982.508
5.832413  11980.38
5.8353741  11980.668
5.8383353  11983.589
5.8412965  11983.298
5.8442577  11977.931
5.8472189  11973.895
5.8501801  11975.261
5.8531413  11982.901
5.8561024  11986.546
5.8590636  11981.582
5.8620248  11971.17
5.864986  11960.798
5.8679472  11957.455
5.8709084  11958.008
5.8738695  11953.016
5.8768307  11954.458
5.8797919  11955.649
5.8827531  11953.669
5.8857143  11948.889
5.8886755  11936.547
5.8916367  11927.465
5.8945978  11924.267
5.897559  11930.39
5.9005202  11932.526
5.9034814  11928.31
5.9064426  11917.118
5.9094038  11907.029
5.9123649  11908.765
5.9153261  11916.327
5.9182873  11919.632
5.9212485  11916.447
5.9242097  11911.157
5.9271709  11901.753
5.9301321  11891.849
5.9330932  11886.158
5.9360544  11891.734
5.9390156  11902.644
5.9419768  11906.227
5.944938  11899.217
5.9478992  11886.889
5.9508603  11879.117
5.9538215  11885.533
5.9567827  11902.975
5.9597439  11909.289
5.9627051  11906.726
5.9656663  11899.454
5.9686275  11897.713
5.9715886  11898.78
5.9745498  11902.101
5.977511  11907.824
5.9804722  11907.203
5.9834334  11909.733
5.9863946  11906.52
5.9893557  11900.104
5.9923169  11892.77
5.9952781  11887.886
5.9982393  11892.209
6.0012005  11902.774
6.0041617  11904.415
6.0071228  11892.955
6.010084  11877.299
6.0130452  11867.157
6.0160064  11869.326
6.0189676  11877.393
6.0219288  11881.631
6.02489  11873.46
6.0278511  11861.878
6.0308123  11850.446
6.0337735  11843.539
6.0367347  11845.775
6.0396959  11855.247
6.0426571  11861.884
6.0456182  11853.711
6.0485794  11840.387
6.0515406  11833.395
6.0545018  11840.967
6.057463  11852.922
6.0604242  11858.402
6.0633854  11852.194
6.0663465  11841.546
6.0693077  11842.535
6.0722689  11844.683
6.0752301  11838.518
6.0781913  11829.021
6.0811525  11825.825
6.0841136  11827.547
6.0870748  11829.438
6.090036  11817.923
6.0929972  11804.477
6.0959584  11799.806
6.0989196  11801.285
6.1018808  11802.576
6.1048419  11799.677
6.1078031  11789.143
6.1107643  11772.284
6.1137255  11763.83
6.1166867  11763.665
6.1196479  11766.852
6.122609  11766.344
6.1255702  11759.543
6.1285314  11748.299
6.1314926  11738.653
6.1344538  11737.925
6.137415  11750.179
6.1403762  11763.739
6.1433373  11768.965
6.1462985  11756.59
6.1492597  11738.292
6.1522209  11739.314
6.1551821  11753.542
6.1581433  11766.142
6.1611044  11771.477
6.1640656  11769.651
6.1670268  11765.801
6.169988  11761.963
6.1729492  11763.982
6.1759104  11765.282
6.1788715  11765.692
6.1818327  11766.297
6.1847939  11771.467
6.1877551  11774.004
6.1907163  11766.206
6.1936775  11751.956
6.1966387  11745.827
6.1995998  11750.424
6.202561  11754.146
6.2055222  11750.439
6.2084834  11741.85
6.2114446  11733.195
6.2144058  11730.179
6.2173669  11733.005
6.2203281  11735.317
6.2232893  11737.588
6.2262505  11738.954
6.2292117  11732.881
6.2321729  11719.82
6.2351341  11710.793
6.2380952  11720.129
6.2410564  11730.599
6.2440176  11731.524
6.2469788  11724.646
6.24994  11715.641
6.2529012  11714.498
6.2558623  11730.372
6.2588235  11741.676
6.2617847  11732.369
6.2647459  11725.146
6.2677071  11726.882
6.2706683  11720.152
6.2736295  11710.991
6.2765906  11712.13
6.2795518  11709.915
6.282513  11708.622
6.2854742  11714.238
6.2884354  11718.46
6.2913966  11706.61
6.2943577  11703.492
6.2973189  11712.915
6.3002801  11711.356
6.3032413  11703.763
6.3062025  11702.266
6.3091637  11690.778
6.3121248  11679.898
6.315086  11684.386
6.3180472  11687.147
6.3210084  11681.278
6.3239696  11683.34
6.3269308  11687.976
6.329892  11670.028
6.3328531  11662.41
6.3358143  11672.741
6.3387755  11674.542
6.3417367  11665.366
6.3446979  11666.975
6.3476591  11656.752
6.3506202  11635.388
6.3535814  11640.785
6.3565426  11654.993
6.3595038  11645.233
6.362465  11631.742
6.3654262  11634.27
6.3683874  11623.944
6.3713485  11611.231
6.3743097  11611.008
6.3772709  11605.352
6.3802321  11593.472
6.3831933  11601.508
6.3861545  11610.264
6.3891156  11588.492
6.3920768  11578.427
6.395038  11587.522
6.3979992  11585.079
6.4009604  11584.847
6.4039216  11598.074
6.4068828  11590.713
6.4098439  11568.395
6.4128051  11570.816
6.4157663  11582.297
6.4187275  11575.774
6.4216887  11583.982
6.4246499  11591.543
6.427611  11566.294
6.4305722  11548.265
6.4335334  11570.323
6.4364946  11582.584
6.4394558  11579.175
6.442417  11584.768
6.4453782  11576.462
6.4483393  11555.355
6.4513005  11563.724
6.4542617  11591.035
6.4572229  11585.667
6.4601841  11581.118
6.4631453  11585.85
6.4661064  11579.192
6.4690676  11572.108
6.4720288  11582.822
6.47499  11585.343
6.4779512  11580.1
6.4809124  11590.842
6.4838735  11598.155
6.4868347  11583.385
6.4897959  11573.598
6.4927571  11581.836
6.4957183  11586.339
6.4986795  11590.002
6.5016407  11594.149
6.5046018  11588.907
6.507563  11577.235
6.5105242  11576.905
6.5134854  11592.454
6.5164466  11610.128
6.5194078  11615.491
6.5223689  11611.098
6.5253301  11603.783
6.5282913  11598.449
6.5312525  11602.157
6.5342137  11615.222
6.5371749  11621.396
6.5401361  11610.691
6.5430972  11604.346
6.5460584  11603.843
6.5490196  11610.442
6.5519808  11620.199
6.554942  11624.059
6.5579032  11619.062
6.5608643  11613
6.5638255  11605.238
6.5667867  11596.749
6.5697479  11591.039
6.5727091  11590.025
6.5756703  11592.272
6.5786315  11596.551
6.5815926  11597.76
6.5845538  11584.442
6.587515  11571.235
6.5904762  11564.977
6.5934374  11564.549
6.5963986  11563.11
6.5993597  11556.951
6.6023209  11546.145
6.6052821  11534.913
6.6082433  11524.428
6.6112045  11528.116
6.6141657  11536.321
6.6171269  11536.383
6.620088  11525.342
6.6230492  11508.358
6.6260104  11497.048
6.6289716  11501.027
6.6319328  11515.003
6.634894  11520.439
6.6378551  11514.287
6.6408163  11503.854
6.6437775  11493.237
6.6467387  11482.544
6.6496999  11485.107
6.6526611  11487.38
6.6556222  11487.844
6.6585834  11484.973
6.6615446  11479.506
6.6645058  11469.223
6.667467  11457.691
6.6704282  11455.35
6.6733894  11455.051
6.6763505  11457.147
6.6793117  11463.396
6.6822729  11454.389
6.6852341  11432.094
6.6881953  11426.802
6.6911565  11430.657
6.6941176  11427.403
6.6970788  11424.075
6.70004  11421.973
6.7030012  11402.607
6.7059624  11386.861
6.7089236  11395.226
6.7118848  11404.684
6.7148459  11400.026
6.7178071  11401.012
6.7207683  11395.392
6.7237295  11388.129
6.7266907  11396.976
6.7296519  11408.905
6.732613  11403.656
6.7355742  11404.628
6.7385354  11415.47
6.7414966  11406.91
6.7444578  11398.808
6.747419  11411.763
6.7503802  11425.725
6.7533413  11427.215
6.7563025  11433.125
6.7592637  11435.682
6.7622249  11432.966
6.7651861  11439.67
6.7681473  11452.765
6.7711084  11458.301
6.7740696  11464.407
6.7770308  11465.542
6.779992  11459.116
6.7829532  11449.93
6.7859144  11447.704
6.7888756  11450.626
6.7918367  11454.899
6.7947979  11453.748
6.7977591  11441.277
6.8007203  11423.274
6.8036815  11416.729
6.8066427  11418.837
6.8096038  11425.232
6.812565  11424.825
6.8155262  11411.355
6.8184874  11389.312
6.8214486  11372.661
6.8244098  11366.729
6.8273709  11362.056
6.8303321  11355.066
6.8332933  11347.754
6.8362545  11336.488
6.8392157  11321.169
6.8421769  11317.394
6.8451381  11325.593
6.8480992  11336.49
6.8510604  11342.721
6.8540216  11341.815
6.8569828  11332.731
6.859944  11326.951
6.8629052  11332.365
6.8658663  11338.853
6.8688275  11339.155
6.8717887  11336.672
6.8747499  11335.9
6.8777111  11330.882
6.8806723  11322.72
6.8836335  11321.904
6.8865946  11327.057
6.8895558  11331.6
6.892517  11325.404
6.8954782  11308.305
6.8984394  11296.091
6.9014006  11298.233
6.9043617  11311.416
6.9073229  11318.274
6.9102841  11311.939
6.9132453  11301.327
6.9162065  11293.668
6.9191677  11292.168
6.9221289  11295.797
6.92509  11303.022
6.9280512  11307.155
6.9310124  11300.732
6.9339736  11290.486
6.9369348  11288.457
6.939896  11293.871
6.9428571  11303.352
6.9458183  11310.484
6.9487795  11311.109
6.9517407  11306.515
6.9547019  11303.929
6.9576631  11304.766
6.9606242  11310.542
6.9635854  11314.087
6.9665466  11313.217
6.9695078  11307.58
6.972469  11301.851
6.9754302  11293.746
6.9783914  11291.671
6.9813525  11296.156
6.9843137  11304.357
6.9872749  11301.567
6.9902361  11287.334
6.9931973  11274.416
6.9961585  11278.495
6.9991196  11287.821
7.0020808  11295.447
7.005042  11290.986
7.0080032  11278.817
7.0109644  11269.283
7.0139256  11270.656
7.0168868  11273.654
7.0198479  11274.217
7.0228091  11274.157
7.0257703  11276.279
7.0287315  11272.232
7.0316927  11264.281
7.0346539  11263.63
7.037615  11274.218
7.0405762  11283.148
7.0435374  11280.219
7.0464986  11269.586
7.0494598  11264.234
7.052421  11265.563
7.0553822  11267.006
7.0583433  11265.773
7.0613045  11263.588
7.0642657  11258.201
7.0672269  11253.675
7.0701881  11250.233
7.0731493  11249.136
7.0761104  11253.093
7.0790716  11256.809
7.0820328  11252.73
7.084994  11243.092
7.0879552  11234.05
7.0909164  11235.463
7.0938776  11241.472
7.0968387  11243.497
7.0997999  11239.117
7.1027611  11233.195
7.1057223  11231.833
7.1086835  11235.183
7.1116447  11240.067
7.1146058  11243.566
7.117567  11247.076
7.1205282  11250.307
7.1234894  11248.585
7.1264506  11245.479
7.1294118  11241.333
7.1323729  11243.773
7.1353341  11248.286
7.1382953  11247.561
7.1412565  11241.138
7.1442177  11234.652
7.1471789  11236.267
7.1501401  11243.977
7.1531012  11249.319
7.1560624  11251.362
7.1590236  11250.473
7.1619848  11246.977
7.164946  11242.805
7.1679072  11243.496
7.1708683  11246.214
7.1738295  11247.489
7.1767907  11243.766
7.1797519  11234.204
7.1827131  11225.988
7.1856743  11225.293
7.1886355  11235.387
7.1915966  11239.667
7.1945578  11231.579
7.197519  11224.54
7.2004802  11223.106
7.2034414  11226.069
7.2064026  11227.991
7.2093637  11229.858
7.2123249  11234.81
7.2152861  11234.956
7.2182473  11228.095
7.2212085  11222.76
7.2241697  11226.582
7.2271309  11235.61
7.230092  11239.304
7.2330532  11234.066
7.2360144  11225.015
7.2389756  11221.455
7.2419368  11223.283
7.244898  11224.483
7.2478591  11224.714
7.2508203  11223.848
7.2537815  11221.477
7.2567427  11220.466
7.2597039  11219.014
7.2626651  11219.857
7.2656263  11221.993
7.2685874  11220.3
7.2715486  11211.727
7.2745098  11204.371
7.277471  11201.774
7.2804322  11200.792
7.2833934  11200.055
7.2863545  11198.655
7.2893157  11197.01
7.2922769  11193.868
7.2952381  11194.134
7.2981993  11195.444
7.3011605  11193.872
7.3041216  11193.046
7.3070828  11195.95
7.310044  11196.135
7.3130052  11190.096
7.3159664  11185.668
7.3189276  11190.941
7.3218888  11199.062
7.3248499  11201.583
7.3278111  11196.673
7.3307723  11192.681
7.3337335  11195.464
7.3366947  11201.818
7.3396559  11205.034
7.342617  11205.452
7.3455782  11204.006
7.3485394  11202.653
7.3515006  11197.724
7.3544618  11197.85
7.357423  11200.706
7.3603842  11203.128
7.3633453  11199.733
7.3663065  11193.147
7.3692677  11188.005
7.3722289  11187.999
7.3751901  11189.579
7.3781513  11189.646
7.3811124  11187.968
7.3840736  11187.363
7.3870348  11185.363
7.389996  11187.148
7.3929572  11191.413
7.3959184  11193.809
7.3988796  11190.721
7.4018407  11187.972
7.4048019  11182.859
7.4077631  11178.274
7.4107243  11177.511
7.4136855  11180.828
7.4166467  11182.506
7.4196078  11179.982
7.422569  11175.966
7.4255302  11177.875
7.4284914  11178.659
7.4314526  11178.892
7.4344138  11175.902
7.4373749  11172.27
7.4403361  11170.825
7.4432973  11172.322
7.4462585  11172.198
7.4492197  11173.532
7.4521809  11174.688
7.4551421  11173.17
7.4581032  11165.446
7.4610644  11160.449
7.4640256  11158.231
7.4669868  11155.988
7.469948  11153.134
7.4729092  11151.881
7.4758703  11150.607
7.4788315  11153.376
7.4817927  11156.328
7.4847539  11158.153
7.4877151  11158.028
7.4906763  11159.653
7.4936375  11157.122
7.4965986  11151.392
7.4995598  11148.044
7.502521  11148.589
7.5054822  11150.121
7.5084434  11151.45
7.5114046  11148.614
7.5143657  11145.241
7.5173269  11142.375
7.5202881  11145.942
7.5232493  11150.463
7.5262105  11149.089
7.5291717  11145.521
7.5321329  11143.729
7.535094  11144.323
7.5380552  11146.304
7.5410164  11144.74
7.5439776  11139.155
7.5469388  11133.928
7.5499  11133.385
7.5528611  11133.215
7.5558223  11133.924
7.5587835  11133.602
7.5617447  11136.532
7.5647059  11142.167
7.5676671  11147.664
7.5706283  11148.393
7.5735894  11146.932
7.5765506  11147.401
7.5795118  11148.359
7.582473  11149.703
7.5854342  11153.516
7.5883954  11155.031
7.5913565  11151.021
7.5943177  11149.376
7.5972789  11150.418
7.6002401  11150.022
7.6032013  11147.152
7.6061625  11148.032
7.6091236  11151.024
7.6120848  11152.185
7.615046  11150.203
7.6180072  11148.197
7.6209684  11144.56
7.6239296  11143.592
7.6268908  11143.1
7.6298519  11144.27
7.6328131  11141.365
7.6357743  11134.165
7.6387355  11129.326
7.6416967  11134.008
7.6446579  11136.207
7.647619  11132.859
7.6505802  11129.237
7.6535414  11129.079
7.6565026  11129.095
7.6594638  11130.66
7.662425  11130.714
7.6653862  11132.767
7.6683473  11136.016
7.6713085  11137.087
7.6742697  11133.521
7.6772309  11129.987
7.6801921  11129.275
7.6831533  11125.181
7.6861144  11120.084
7.6890756  11113.475
7.6920368  11108.378
7.694998  11105.717
7.6979592  11103.532
7.7009204  11102.512
7.7038816  11102.679
7.7068427  11104.987
7.7098039  11102.074
7.7127651  11096.087
7.7157263  11097.176
7.7186875  11100.274
7.7216487  11098.933
7.7246098  11088.422
7.727571  11076.284
7.7305322  11074.208
7.7334934  11079.621
7.7364546  11078.885
7.7394158  11072.643
7.742377  11068.59
7.7453381  11068.368
7.7482993  11073.346
7.7512605  11078.965
7.7542217  11079.939
7.7571829  11079.904
7.7601441  11081.708
7.7631052  11082.19
7.7660664  11079.068
7.7690276  11078.061
7.7719888  11080.454
7.77495  11079.992
7.7779112  11074.257
7.7808723  11070.067
7.7838335  11071.088
7.7867947  11072.422
7.7897559  11072.313
7.7927171  11073.253
7.7956783  11073.09
7.7986395  11070.439
7.8016006  11065.162
7.8045618  11062.894
7.807523  11062.587
7.8104842  11061.951
7.8134454  11053.663
7.8164066  11042.132
7.8193677  11040.534
7.8223289  11045.829
7.8252901  11051.567
7.8282513  11048.644
7.8312125  11044.076
7.8341737  11043.013
7.8371349  11047.018
7.840096  11048.044
7.8430572  11047.627
7.8460184  11044.455
7.8489796  11039.104
7.8519408  11032.181
7.854902  11029.459
7.8578631  11026.395
7.8608243  11023.521
7.8637855  11022.902
7.8667467  11016.633
7.8697079  11011.639
7.8726691  11012.76
7.8756303  11017.418
7.8785914  11017.792
7.8815526  11015.651
7.8845138  11015.821
7.887475  11016.888
7.8904362  11011.07
7.8933974  11004.177
7.8963585  11000.082
7.8993197  10998.195
7.9022809  10987.243
7.9052421  10974.211
7.9082033  10965.413
7.9111645  10966.974
7.9141257  10970.552
7.9170868  10970.537
7.920048  10966.277
7.9230092  10960.735
7.9259704  10958.375
7.9289316  10957.623
7.9318928  10959.702
7.9348539  10957.553
7.9378151  10954.076
7.9407763  10951.106
7.9437375  10948.032
7.9466987  10945.241
7.9496599  10949.433
7.952621  10949.448
7.9555822  10944.205
7.9585434  10936.297
7.9615046  10933.182
7.9644658  10935.109
7.967427  10934.984
7.9703882  10932.54
7.9733493  10931.117
7.9763105  10931.925
7.9792717  10931.372
7.9822329  10928.144
7.9851941  10925.224
7.9881553  10929.018
7.9911164  10925.559
7.9940776  10919.977
7.9970388  10917.513
8  10920.926
